time,motor_angle,motor_setpoint,pendulum_angle,pendulum_setpoint,rpm,voltage,current
2.335,0.0,1000,0.0,0,0,0,0
2.344,0.0,1000,0.0,0,0,24,0
2.357,0.0,1000,0.0,0,0,24,0
2.367,5.8,1000,0.0,0,196,24,429
2.375,34.27,1000,0.0,0,535,24,352
2.389,79.27,1000,0.0,0,804,24,320
2.402,149.76,1000,0.0,0,1068,24,289
2.411,250.31,1000,0.0,0,1333,21.264389950840457,257
2.423,341.36,1000,0.0,0,1513,4.528334361564607,236
2.432,422.57,1000,0.0,0,1649,9.845597981944415,223
2.455,523.47,1000,0.0,0,1621,12.854283323208874,46
2.465,687.65,1000,0.0,0,1698,7.293976183603849,61
2.475,868.0,1000,0.0,0,1850,-15.1480790208979,127
2.486,995.27,1000,0.0,0,1831,-24,13
2.495,1080.35,1000,0.0,0,1343,-24,571
2.505,1149.96,1000,0.0,0,1089,-18.69353937898945,549
2.518,1206.73,1000,0.0,0,702,-18.62381248894025,515
2.537,1242.24,1000,0.0,0,325,-13.60554688889928,459
2.549,1243.3,1000,0.0,0,-281,-19.370300032532192,389
2.554,1226.95,1000,0.0,0,-447,-9.996002949675432,317
2.571,1186.52,1000,0.0,0,-725,-4.027137609645194,333
2.581,1158.39,1000,0.0,0,-727,-3.0141223053460147,184
2.59,1070.85,1000,0.0,0,-827,0.17771893031021335,11
2.6,1030.6,1000,0.0,0,-817,16.670743741698594,12
2.61,987.71,1000,0.0,0,-770,8.515037170690873,91
2.619,962.5699999999999,1000,0.0,0,-382,6.623063768908707,463
2.627,932.34,1000,0.0,0,-223,10.878231389804604,253
2.637,926.36,1000,0.0,0,-159,9.391958725278554,191
2.65,923.37,1000,0.0,0,31,4.05158112019291,289
2.662,933.5699999999999,1000,0.0,0,232,3.5718849877409173,222
2.67,953.96,1000,0.0,0,303,0.8996338549680525,65
2.682,975.41,1000,0.0,0,340,-2.880793518099325,48
2.694,991.5799999999999,1000,0.0,0,322,-2.789711967266635,8
2.704,1009.6800000000001,1000,0.0,0,265,-1.7352885706008294,101
2.712,1028.84,1000,0.0,0,162,-4.882694257230651,87
2.716,1035.35,1000,0.0,0,132,-7.417378565959735,56
2.721,1039.21,1000,0.0,0,74,-4.573533075218279,135
2.725,1039.74,1000,0.0,0,28,-3.4532207387904714,197
2.738,1039.3899999999999,1000,0.0,0,-14,-1.6325535109432214,115
2.75,1035.7,1000,0.0,0,-82,-1.4410951591217571,76
2.759,1031.48,1000,0.0,0,-100,-0.8220008033629687,25
2.773,1022.69,1000,0.0,0,-118,-0.46119455397899056,19
2.778,1014.78,1000,0.0,0,-124,0.7112179656483085,5
2.782,1006.87,1000,0.0,0,-123,4.771468572543482,0
2.786,1004.23,1000,0.0,0,-115,2.898165896418953,32
2.79,1001.77,1000,0.0,0,-93,1.6274173006213384,131
2.794,1000.37,1000,0.0,0,-66,0.93746754075754,77
2.799,999.14,1000,0.0,0,-49,0.7076204061313233,41
2.803,998.0799999999999,1000,0.0,0,-41,0.6731108060400313,25
2.814,997.38,1000,0.0,0,-33,0.6312790598763693,19
2.824,996.85,1000,0.0,0,-29,0.2460033414308895,16
2.833,995.97,1000,0.0,0,-12,0.24750162516364557,15
2.843,995.62,1000,0.0,0,-10,0.3647784586867545,4
2.855,995.62,1000,0.0,0,-5,0.2655648605318825,3
2.866,995.97,1000,0.0,0,3,0.20304616494178757,6
2.877,996.3199999999999,1000,0.0,0,3,0.1402976924266803,4
2.886,997.03,1000,0.0,0,8,0.09878303390211242,1
2.897,997.55,1000,0.0,0,8,-0.028579141575263867,1
2.906,997.9100000000001,1000,0.0,0,8,0.05062634072997112,1
2.919,998.26,1000,0.0,0,5,0.020987558346193855,0
2.933,998.4300000000001,1000,0.0,0,5,0.05454160456960233,0
2.942,998.61,1000,0.0,0,5,0.06367717361601227,0
2.951,998.61,1000,0.0,0,3,0.060356316984536265,0
2.96,998.61,1000,0.0,0,2,0.08810938334464974,0
2.977,998.61,1000,0.0,0,2,0.08844274706840462,0
2.988,998.61,1000,0.0,0,1,0.08874864420890755,0
2.998,998.61,1000,0.0,0,1,0.0890821073532099,0
3.007,998.61,1000,0.0,0,1,0.0894160874843592,0
3.024,998.61,1000,0.0,0,1,0.08980529904365485,0
3.035,998.61,1000,0.0,0,1,0.0901700862884516,0
3.045,998.61,1000,0.0,0,0,0.09052772188186589,0
3.066,998.61,1000,0.0,0,0,0.09080566859245245,0
3.081,998.61,1000,0.0,0,0,0.0913061450004572,0
3.092,998.61,1000,0.0,0,0,0.09169393153190555,0
3.102,998.61,1000,0.0,0,0,0.09202923727035466,0
3.117,998.61,1000,0.0,0,0,0.09236089758872928,0
3.128,998.61,1000,0.0,0,0,0.09277790050506535,0
3.134,998.61,1000,0.0,0,0,0.09300218663215579,0
3.144,998.61,1000,0.0,0,0,0.09319681229591312,0
3.158,998.61,1000,0.0,0,0,0.09347496447563114,0
3.171,998.61,1000,0.0,0,0,0.09389198064804019,0
3.179,998.61,1000,0.0,0,0,0.09419760603904664,0
3.191,998.61,1000,0.0,0,0,0.09447528100013673,0
3.211,998.61,1000,0.0,0,0,0.09489236345291077,0
3.219,998.61,1000,0.0,0,0,0.09528168106079041,0
3.234,998.61,1000,0.0,0,0,0.09561519060134827,0
3.248,998.61,1000,0.0,0,0,0.09592087564468323,0
3.263,998.61,1000,0.0,0,0,0.09636587538719116,0
3.27,998.61,1000,0.0,0,0,0.09670712647437987,0
3.28,998.61,1000,0.0,0,0,0.09697753047943053,0
3.295,998.61,1000,0.0,0,0,0.09722833538055357,0
3.309,998.61,1000,0.0,0,0,0.0976997942447656,0
3.316,998.61,1000,0.0,0,0,0.098005963134765,0
3.328,998.61,1000,0.0,0,0,0.09828414845466552,0
3.341,998.61,1000,0.0,0,0,0.0985630959987634,0
3.354,998.61,1000,0.0,0,0,0.09892334303855832,0
3.364,998.61,1000,0.0,0,0,0.09928623466491635,0
3.375,998.61,1000,0.0,0,0,0.09959075980186397,0
3.396,998.61,1000,0.0,0,0,0.10003520278930599,0
3.409,998.61,1000,0.0,0,0,0.10048013625144893,0
3.419,998.61,1000,0.0,0,0,0.1008414172649377,0
3.434,998.61,1000,0.0,0,0,0.1010639602184289,0
3.446,998.61,1000,0.0,0,0,0.10150939741134576,0
3.455,998.61,1000,0.0,0,0,0.10181484384536676,0
3.465,998.61,1000,0.0,0,0,0.1020649859428399,0
3.478,998.61,1000,0.0,0,0,0.10237045226097038,0
3.491,998.61,1000,0.0,0,0,0.10275959091186455,0
3.502,998.61,1000,0.0,0,0,0.10309167542457512,0
3.512,998.61,1000,0.0,0,0,0.10345465984344414,0
3.527,998.61,1000,0.0,0,0,0.10370348958969047,0
3.54,998.61,1000,0.0,0,0,0.10415021262168815,0
3.551,998.61,1000,0.0,0,0,0.10445577173232962,0
3.561,998.61,1000,0.0,0,0,0.1047891089439385,0
3.576,998.61,1000,0.0,0,0,0.10504046397209096,0
3.592,998.61,1000,0.0,0,0,0.1055119162082665,0
3.599,998.61,1000,0.0,0,0,0.1058994442462914,0
3.61,998.61,1000,0.0,0,0,0.10615142230987476,0
3.626,998.61,1000,0.0,0,0,0.10642766561508107,0
3.637,998.61,1000,0.0,0,0,0.10684661054611133,0
3.651,998.61,1000,0.0,0,0,0.10717962961196828,0
3.658,998.61,1000,0.0,0,0,0.10751209855079578,0
3.676,998.61,1000,0.0,0,0,0.10779006514549183,0
3.691,998.61,1000,0.0,0,0,0.10820842680931018,0
3.699,998.61,1000,0.0,0,0,0.10862543635368274,0
3.709,998.61,1000,0.0,0,0,0.1089297096252434,0
3.726,998.61,1000,0.0,0,0,0.10918196606635973,0
3.737,998.61,1000,0.0,0,0,0.10965422029495164,0
3.747,998.61,1000,0.0,0,0,0.10990439553260728,0
3.758,998.61,1000,0.0,0,0,0.11026649179458542,0
3.765,998.61,1000,0.0,0,0,0.11051583852767868,0
3.769,998.61,1000,0.0,0,0,0.11065335040092392,0
3.773,998.61,1000,0.0,0,0,0.11076618609428329,0
3.777,998.61,1000,0.0,0,0,0.1108774973392479,0
3.781,998.61,1000,0.0,0,0,0.11101634144782943,0
3.785,998.61,1000,0.0,0,0,0.11112752013206405,0
3.79,998.61,1000,0.0,0,0,0.11123897056579513,0
3.804,998.61,1000,0.0,0,0,0.11151664552688521,0
3.816,998.61,1000,0.0,0,0,0.11182262883186263,0
3.828,998.61,1000,0.0,0,0,0.11212704792022626,0
3.839,998.61,1000,0.0,0,0,0.1125178236961357,0
3.85,998.61,1000,0.0,0,0,0.11273993582725446,0
3.861,998.61,1000,0.0,0,0,0.11310162777900616,0
3.871,998.61,1000,0.0,0,0,0.11334983448982158,0
3.882,998.61,1000,0.0,0,0,0.11371367392539898,0
3.895,998.61,1000,0.0,0,0,0.11406456880569377,0
3.909,998.61,1000,0.0,0,0,0.11431498928069986,0
3.918,998.61,1000,0.0,0,0,0.1146765089035026,0
3.928,998.61,1000,0.0,0,0,0.11498202161788859,0
3.942,998.61,1000,0.0,0,0,0.11525992193221965,0
3.954,998.61,1000,0.0,0,0,0.1157048355102531,0
3.962,998.61,1000,0.0,0,0,0.1159551167964927,0
3.966,998.61,1000,0.0,0,0,0.11612183842658914,0
3.97,998.61,1000,0.0,0,0,0.11625941658019937,0
3.974,998.61,1000,0.0,0,0,0.11637036328315653,0
3.978,998.61,1000,0.0,0,0,0.1164838286399833,0
3.988,998.61,1000,0.0,0,0,0.11659281344413674,0
4.001,998.61,1000,0.0,0,0,0.11698207139968789,0
4.011,998.4300000000001,1000,0.0,0,0,0.11726068091392433,1
4.022,996.15,1000,0.0,0,-46,0.16084462023278417,5
4.039,991.75,1000,0.0,0,-92,0.5657032964775145,10
4.047,982.79,1000,0.0,0,-125,0.982815758969433,13
4.057,972.77,1000,0.0,0,-98,2.5484868724768557,23
4.066,967.5,1000,0.0,0,-75,3.1647371202563104,30
4.074,964.51,1000,0.0,0,-41,2.8967337963877338,70
4.086,964.51,1000,0.0,0,13,1.9665446396132789,82
4.104,968.55,1000,0.0,0,71,1.512643353509903,59
4.116,971.71,1000,0.0,0,91,0.7090190996529031,33
4.128,983.49,1000,0.0,0,120,0.5146256637396889,20
4.139,992.63,1000,0.0,0,122,-1.2497931324846805,2
4.146,1002.48,1000,0.0,0,122,-1.8240875110200796,0
4.15,1008.1,1000,0.0,0,101,-3.001037222862413,40
4.154,1011.26,1000,0.0,0,74,-3.223109230173458,51
4.159,1012.6700000000001,1000,0.0,0,59,-2.119703386956189,79
4.163,1013.55,1000,0.0,0,45,-1.3022940415597741,84
4.167,1013.9,1000,0.0,0,25,-1.0734961435338435,50
4.177,1014.0799999999999,1000,0.0,0,19,-0.8237041155832455,30
4.184,1013.9,1000,0.0,0,-11,-0.6917080182841073,24
4.197,1012.6700000000001,1000,0.0,0,-19,-0.6090116153168174,16
4.207,1011.44,1000,0.0,0,-25,-0.1831474261932834,12
4.218,1009.1600000000001,1000,0.0,0,-36,-0.18508204011475884,10
4.226,1005.99,1000,0.0,0,-37,0.2344569680703089,0
4.24,1004.06,1000,0.0,0,-36,0.43134739565965796,0
4.252,1001.95,1000,0.0,0,-32,0.22733987404939393,7
4.26,1000.01,1000,0.0,0,-20,0.4794248864452377,10
4.271,999.31,1000,0.0,0,-15,0.4450609960719559,5
4.281,998.78,1000,0.0,0,-9,0.29524997415439574,9
4.29,998.78,1000,0.0,0,-5,0.23845451864449516,8
4.298,999.14,1000,0.0,0,3,0.14181566925048938,4
4.311,999.49,1000,0.0,0,3,0.03751986068780573,3
4.321,999.8399999999999,1000,0.0,0,7,0.06377168511957805,1
4.329,1000.19,1000,0.0,0,7,0.01197219314620701,1
4.335,1000.37,1000,0.0,0,5,-0.0018045514587247402,0
4.339,1000.54,1000,0.0,0,4,0.006862027297404802,1
4.35,1000.54,1000,0.0,0,4,0.03367533650216634,0
4.365,1000.54,1000,0.0,0,4,0.07145994338989406,0
4.376,1000.54,1000,0.0,0,4,0.07129775686264186,0
4.384,1000.54,1000,0.0,0,2,0.0711900505065933,0
4.388,1000.54,1000,0.0,0,2,0.07112498483657986,0
4.392,1000.54,1000,0.0,0,2,0.07108192701339872,0
4.396,1000.54,1000,0.0,0,1,0.07102823219299467,0
4.4,1000.54,1000,0.0,0,1,0.07099541740417631,0
4.404,1000.54,1000,0.0,0,1,0.07094161186218412,0
4.413,1000.54,1000,0.0,0,1,0.07089842271804961,0
4.425,1000.54,1000,0.0,0,1,0.07079035587310945,0
4.435,1000.54,1000,0.0,0,1,0.07063920030594026,0
4.446,1000.54,1000,0.0,0,1,0.07053107938766634,0
4.458,1000.54,1000,0.0,0,1,0.0704016304016129,0
4.47,1000.54,1000,0.0,0,0,0.07030413618087925,0
4.481,1000.54,1000,0.0,0,0,0.07017486228943029,0
4.488,1000.54,1000,0.0,0,0,0.0700667336463944,0
4.495,1000.54,1000,0.0,0,0,0.06998044805526893,0
4.508,1000.54,1000,0.0,0,0,0.06991584587097327,0
4.518,1000.54,1000,0.0,0,0,0.06974278545379797,0
4.528,1000.54,1000,0.0,0,0,0.06966725530624548,0
4.538,999.6600000000001,1000,0.0,0,0,0.06953759517669839,4
4.552,994.04,1000,0.0,0,-113,0.2657094286997181,13
4.567,983.49,1000,0.0,0,-192,1.2633378340866512,22
4.577,966.79,1000,0.0,0,-245,1.9999805194388531,32
4.584,944.12,1000,0.0,0,-187,4.93978010915065,50
4.588,935.6800000000001,1000,0.0,0,-150,11.307743470642428,62
4.593,931.99,1000,0.0,0,-107,6.627302672321721,139
4.604,930.76,1000,0.0,0,-56,4.486469715177764,306
4.614,930.9300000000001,1000,0.0,0,22,2.862238816610791,170
4.623,940.42,1000,0.0,0,143,2.6757256011851878,95
4.633,949.92,1000,0.0,0,179,-0.34614806851722957,47
4.646,958.35,1000,0.0,0,208,0.5150351682035295,38
4.657,972.42,1000,0.0,0,180,-0.23022726292811124,28
4.671,982.96,1000,0.0,0,169,-1.4689726006462274,3
4.689,993.69,1000,0.0,0,155,-0.5613648713084662,20
4.7,1006.52,1000,0.0,0,102,-0.955145923903278,46
4.711,1015.13,1000,0.0,0,69,-2.829819965236713,20
4.72,1018.65,1000,0.0,0,48,-2.049767157595122,27
4.728,1019.7,1000,0.0,0,15,-1.927592546665088,67
4.741,1018.8199999999999,1000,0.0,0,-9,-1.0381881030108326,44
4.753,1016.36,1000,0.0,0,-54,-0.6575669668162505,37
4.765,1010.03,1000,0.0,0,-74,-0.1951784510361862,15
4.776,1005.64,1000,0.0,0,-79,0.6324979629626668,6
4.785,1000.01,1000,0.0,0,-78,0.6280323617457879,1
4.79,995.8,1000,0.0,0,-62,1.2455026262643196,21
4.804,992.98,1000,0.0,0,-50,0.9788186145975024,19
4.814,990.7,1000,0.0,0,-30,0.7054215063485656,30
4.817,990.0,1000,0.0,0,-14,1.097845407612963,22
4.822,990.0,1000,0.0,0,-8,0.7244210458130869,14
4.826,990.1700000000001,1000,0.0,0,6,0.37590672864913943,23
4.83,990.7,1000,0.0,0,5,0.2843414108420505,14
4.845,991.05,1000,0.0,0,5,0.11869101294261275,5
4.853,991.4,1000,0.0,0,17,0.2971686149866998,3
4.864,993.1600000000001,1000,0.0,0,17,0.25222461872376273,1
4.879,994.21,1000,0.0,0,16,-0.004192370163248416,3
4.894,995.62,1000,0.0,0,18,0.0645468112847272,2
4.902,997.03,1000,0.0,0,16,-0.07613004632245252,1
4.912,998.0799999999999,1000,0.0,0,14,-0.2799400594186313,1
4.925,998.4300000000001,1000,0.0,0,12,-0.12102285998798762,0
4.935,998.96,1000,0.0,0,8,0.0027568841684989867,6
4.949,999.31,1000,0.0,0,7,-0.09110124264776989,0
4.96,999.31,1000,0.0,0,5,-0.03714189561687012,0
4.97,999.31,1000,0.0,0,3,0.01615051355362157,0
4.984,999.31,1000,0.0,0,2,0.016260882520677852,0
4.994,999.31,1000,0.0,0,2,0.016468667030336684,0
5.002,999.31,1000,0.0,0,1,0.016592035484316182,0
5.006,999.31,1000,0.0,0,1,0.016662205076219877,0
5.01,999.31,1000,0.0,0,1,0.01671701612472757,0
5.014,999.31,1000,0.0,0,1,0.01677148499489054,0
5.019,999.31,1000,0.0,0,1,0.016827733850481367,0
5.028,999.31,1000,0.0,0,1,0.016887730216982227,0
5.039,999.31,1000,0.0,0,1,0.01703937115669476,0
5.051,999.31,1000,0.0,0,1,0.017218902921678908,0
5.06,999.31,1000,0.0,0,0,0.01734227795601119,0
5.068,999.31,1000,0.0,0,0,0.01750789556503525,0
5.085,999.31,1000,0.0,0,0,0.01761834020614854,0
5.094,999.31,1000,0.0,0,0,0.017853571367266112,0
5.106,999.31,1000,0.0,0,0,0.017977907133104744,0
5.118,999.31,1000,0.0,0,0,0.018115913581850485,0
5.126,999.31,1000,0.0,0,0,0.01830912590027091,0
5.136,999.31,1000,0.0,0,0,0.01839202189445732,0
5.146,999.31,1000,0.0,0,0,0.018530166530611507,0
5.157,999.31,1000,0.0,0,0,0.018667143154146672,0
5.167,999.31,1000,0.0,0,0,0.018820034360888017,0
5.179,999.31,1000,0.0,0,0,0.01898543152809384,0
5.193,999.31,1000,0.0,0,0,0.019123342561724224,0
5.203,997.38,1000,0.0,0,-51,0.019330347299578242,6
5.214,984.72,1000,0.0,0,-189,0.5258197567179892,22
5.224,973.12,1000,0.0,0,-233,2.2873231035724606,27
5.236,947.81,1000,0.0,0,-343,3.0223666979648494,52
5.24,921.97,1000,0.0,0,-327,12.250786363380428,92
5.244,913.1800000000001,1000,0.0,0,-288,20.325345155735903,107
5.248,908.4300000000001,1000,0.0,0,-222,7.95969936114459,357
5.252,904.92,1000,0.0,0,-110,6.0269278743445,428
5.256,903.51,1000,0.0,0,-52,5.593645367563166,218
5.272,903.69,1000,0.0,0,22,4.468902158889121,154
5.285,904.74,1000,0.0,0,16,3.912054237868406,138
5.293,919.51,1000,0.0,0,185,3.517419008807685,91
5.306,934.62,1000,0.0,0,252,0.677662558430038,67
5.318,953.61,1000,0.0,0,290,-0.46150809959556804,52
5.329,971.89,1000,0.0,0,291,-1.3745871438571653,9
5.338,990.7,1000,0.0,0,253,-2.585921293972333,40
5.354,1004.76,1000,0.0,0,212,-3.092954751978839,63
5.365,1016.89,1000,0.0,0,144,-1.8947804459297752,79
5.376,1026.03,1000,0.0,0,49,-3.1631430615211795,81
5.388,1027.26,1000,0.0,0,16,-2.7577621031247843,44
5.393,1025.33,1000,0.0,0,-48,-1.428481237473722,71
5.403,1021.46,1000,0.0,0,-88,-0.3087133722912182,56
5.415,1018.65,1000,0.0,0,-98,-0.15535676479983895,21
5.432,1012.6700000000001,1000,0.0,0,-99,-0.4211437582614365,1
5.446,1004.76,1000,0.0,0,-96,0.0760186487905411,3
5.456,994.39,1000,0.0,0,-95,1.0446321750055843,0
5.474,987.89,1000,0.0,0,-84,1.7422679099490765,9
5.488,982.61,1000,0.0,0,-61,1.1305607467194048,30
5.496,979.8,1000,0.0,0,-13,1.435838322381536,39
5.512,980.85,1000,0.0,0,17,1.3021303636048145,22
5.527,983.14,1000,0.0,0,40,0.5425984560626128,28
5.539,987.36,1000,0.0,0,62,0.36245215081511245,22
5.551,994.5699999999999,1000,0.0,0,69,-0.4887235341322058,3
5.563,998.4300000000001,1000,0.0,0,69,-0.8654464565202453,0
5.58,1003.35,1000,0.0,0,51,-0.6881953090777335,17
5.593,1005.8199999999999,1000,0.0,0,36,-0.7684752746388761,23
5.602,1007.5699999999999,1000,0.0,0,11,-0.7010202680432438,16
5.616,1007.22,1000,0.0,0,-8,-0.6504545424306466,16
5.625,1005.99,1000,0.0,0,-16,-0.28374110637679983,14
5.629,1003.88,1000,0.0,0,-30,0.05287948598645398,11
5.633,1002.65,1000,0.0,0,-34,0.8345642945862748,2
5.637,1001.77,1000,0.0,0,-33,0.4524690237940904,3
5.654,1001.0699999999999,1000,0.0,0,-32,0.30943362801028274,21
5.666,1000.54,1000,0.0,0,-27,-0.03663518411303046,12
5.678,998.61,1000,0.0,0,-13,0.03550840502007459,6
5.69,998.0799999999999,1000,0.0,0,-10,0.23684948960038588,0
5.702,997.55,1000,0.0,0,-8,0.13488859980423482,0
5.712,997.38,1000,0.0,0,-5,0.12751278165104057,4
5.722,997.38,1000,0.0,0,-3,0.0801132850358536,0
5.734,997.38,1000,0.0,0,-2,0.04669447388649013,0
5.746,997.38,1000,0.0,0,-2,0.04743110651969937,0
5.762,997.38,1000,0.0,0,-1,0.04790064845085171,0
5.775,997.38,1000,0.0,0,-1,0.04889503941535977,0
5.784,997.38,1000,0.0,0,-1,0.049368641614914215,0
5.793,997.38,1000,0.0,0,-1,0.05005270314216641,0
5.801,997.38,1000,0.0,0,0,0.05047032361030605,0
5.812,997.38,1000,0.0,0,0,0.05078555035591152,0
5.826,997.38,1000,0.0,0,0,0.05151524930000332,0
5.84,997.38,1000,0.0,0,0,0.05220213427543668,0
5.851,997.38,1000,0.0,0,0,0.05293318247795133,0
5.858,997.38,1000,0.0,0,0,0.05340491070747403,0
5.862,997.38,1000,0.0,0,0,0.05371900057792691,0
5.866,997.38,1000,0.0,0,0,0.053929235029220854,0
5.871,997.38,1000,0.0,0,0,0.05413901972770718,0
5.875,997.38,1000,0.0,0,0,0.05434814229011563,0
5.887,997.38,1000,0.0,0,0,0.054557802057266507,1
5.901,996.15,1000,0.0,0,-48,0.05544535174369839,3
5.914,980.5,1000,0.0,0,-249,0.2809194935997017,29
5.926,956.0699999999999,1000,0.0,0,-318,3.3362656946952165,38
5.942,929.17,1000,0.0,0,-410,6.6258004011177025,52
5.955,907.03,1000,0.0,0,-329,5.81070395283715,121
5.965,885.9300000000001,1000,0.0,0,-82,7.755951881863572,183
5.977,885.41,1000,0.0,0,21,8.11865620301978,159
5.989,895.42,1000,0.0,0,214,4.742222135670023,179
6.002,913.0,1000,0.0,0,346,2.9517387835838997,174
6.01,947.63,1000,0.0,0,429,-1.0259552639598564,70
6.018,970.66,1000,0.0,0,441,-6.662446136882102,18
6.028,990.52,1000,0.0,0,401,-3.513332059679807,72
6.037,1008.28,1000,0.0,0,264,-4.156015608188883,209
6.047,1020.5799999999999,1000,0.0,0,192,-3.9476347675813512,110
6.056,1028.84,1000,0.0,0,102,-3.645441156260744,118
6.065,1031.83,1000,0.0,0,52,-3.3132888669094003,105
6.072,1032.01,1000,0.0,0,-16,-2.11958360474353,89
6.085,1029.72,1000,0.0,0,-54,-1.2206696138254887,74
6.097,1025.68,1000,0.0,0,-90,-0.7169922477862276,39
6.108,1018.12,1000,0.0,0,-107,-0.4002626938812791,15
6.116,1008.45,1000,0.0,0,-109,0.5126495551372268,4
6.12,1000.19,1000,0.0,0,-109,6.193663620030367,0
6.124,998.26,1000,0.0,0,-105,4.209257065055199,23
6.129,996.3199999999999,1000,0.0,0,-87,1.1114411956306167,168
6.144,995.0899999999999,1000,0.0,0,-38,1.2014924888989789,111
6.159,994.74,1000,0.0,0,-28,0.4080378844660525,27
6.168,995.27,1000,0.0,0,10,0.3478393437286632,26
6.185,997.03,1000,0.0,0,24,0.1678413532955254,5
6.196,998.78,1000,0.0,0,27,-0.01569363764475082,3
6.203,1001.25,1000,0.0,0,25,-0.18563885306100025,1
6.211,1002.8299999999999,1000,0.0,0,22,-0.6643707972390569,2
6.221,1003.53,1000,0.0,0,20,-0.3792644649482886,4
6.236,1004.23,1000,0.0,0,17,-0.21337437187629588,18
6.248,1004.4100000000001,1000,0.0,0,8,-0.1790490379119384,9
6.258,1004.06,1000,0.0,0,-6,-0.12429307719961194,3
6.279,1003.53,1000,0.0,0,-5,-0.027552728150198096,2
6.293,1003.1800000000001,1000,0.0,0,-5,-0.00568804422821325,0
6.303,1002.8299999999999,1000,0.0,0,-4,0.010055476261779099,0
6.311,1002.8299999999999,1000,0.0,0,-4,0.02333294566939307,0
6.325,1002.8299999999999,1000,0.0,0,-3,-0.03541362829208078,0
6.331,1002.8299999999999,1000,0.0,0,-3,-0.03609121370315255,0
6.345,1002.8299999999999,1000,0.0,0,-2,-0.03643111295699776,0
6.361,1002.8299999999999,1000,0.0,0,-2,-0.03733687672614752,0
6.368,1002.8299999999999,1000,0.0,0,-1,-0.03818685426711735,0
6.385,1002.8299999999999,1000,0.0,0,-1,-0.038694962358471696,0
6.399,1002.8299999999999,1000,0.0,0,-1,-0.039713283681866454,0
6.416,1002.8299999999999,1000,0.0,0,-1,-0.04039126043319394,0
6.427,1002.8299999999999,1000,0.0,0,0,-0.04141121459006952,0
6.433,1002.8299999999999,1000,0.0,0,0,-0.04192111744880364,0
