time,motor_angle,motor_setpoint,pendulum_angle,pendulum_setpoint,rpm,voltage,current
2.276,0.0,500,0.0,0,0,0,0
2.284,0.0,500,0.0,0,0,24,0
2.288,0.0,500,0.0,0,0,24,0
2.293,4.04,500,0.0,0,157,24,379
2.297,9.66,500,0.0,0,271,24,367
2.301,19.86,500,0.0,0,405,24,353
2.305,29.17,500,0.0,0,487,24,343
2.315,43.94,500,0.0,0,594,24,330
2.327,59.23,500,0.0,0,680,24,323
2.335,113.2,500,0.0,0,922,24,293
2.344,187.38,500,0.0,0,1154,1.1148395309735797,268
2.353,254.0,500,0.0,0,1318,-16.196652584142967,264
2.37,322.2,500,0.0,0,1262,-5.753030858875,95
2.379,400.78,500,0.0,0,785,-12.329509433962256,490
2.392,451.93,500,0.0,0,604,-24,215
2.407,482.34000000000003,500,0.0,0,317,-14.51382097498408,356
2.423,491.65999999999997,500,0.0,0,-28,-11.373791623027671,392
2.434,473.73,500,0.0,0,-391,-1.892490804932505,335
2.445,411.67,500,0.0,0,-694,11.984009287394269,216
2.453,375.11,500,0.0,0,-683,24,23
2.463,347.51,500,0.0,0,-481,24,362
2.476,329.58,500,0.0,0,-169,23.787768716641203,418
2.491,329.23,500,0.0,0,136,19.398846453265897,383
2.499,364.74,500,0.0,0,560,13.655084605651604,335
2.508,398.32,500,0.0,0,757,-18.845493665382925,311
2.519,430.65999999999997,500,0.0,0,863,-8.889798344184978,256
2.53,467.4,500,0.0,0,590,-10.620021984264657,469
2.538,494.28999999999996,500,0.0,0,389,-15.965414917544537,292
2.552,511.34000000000003,500,0.0,0,161,-13.017161562193632,311
2.568,512.4,500,0.0,0,-99,-7.075450894958199,389
2.582,490.78,500,0.0,0,-394,-1.4036445119635332,294
2.594,440.68,500,0.0,0,-559,7.846096583427578,116
2.61,390.93,500,0.0,0,-542,24,18
2.618,365.97,500,0.0,0,-374,24,241
2.625,352.44,500,0.0,0,31,24,392
2.635,360.0,500,0.0,0,248,20.333539404459295,369
2.65,377.05,500,0.0,0,452,7.90703274024322,348
2.661,417.83,500,0.0,0,722,3.5193963529371466,318
2.673,478.65,500,0.0,0,840,-10.489975382456262,105
2.684,541.23,500,0.0,0,840,-20.112436054785782,1
2.693,594.14,500,0.0,0,524,-24,332
2.701,613.47,500,0.0,0,259,-24,467
2.707,619.8,500,0.0,0,59,-22.620209044681026,400
2.717,615.76,500,0.0,0,-179,-13.40567978899425,379
2.724,602.05,500,0.0,0,-385,-6.622588942922867,358
2.734,577.61,500,0.0,0,-558,-1.2380629648122525,285
2.744,542.63,500,0.0,0,-641,11.315865577050669,95
2.75,516.09,500,0.0,0,-622,14.225410637761138,24
2.759,488.14,500,0.0,0,-413,17.578544186445644,338
2.765,475.48,500,0.0,0,-222,21.092624843828773,392
2.772,471.09000000000003,500,0.0,0,-36,11.043276002603122,438
2.78,475.65999999999997,500,0.0,0,192,4.800120405783995,376
2.792,490.78,500,0.0,0,344,-1.2463749570738587,245
2.803,506.41999999999996,500,0.0,0,399,-5.005673573675529,72
2.81,535.42,500,0.0,0,345,-7.554564900951487,68
2.82,553.71,500,0.0,0,225,-24,151
2.83,559.51,500,0.0,0,149,-11.842345900386894,210
2.842,556.17,500,0.0,0,-163,-7.965355502383632,382
2.847,541.05,500,0.0,0,-352,-2.9834019599616237,268
2.855,514.33,500,0.0,0,-478,11.669862592825048,150
2.862,498.69,500,0.0,0,-497,15.756952598358872,15
2.869,481.99,500,0.0,0,-313,9.787371629619987,335
2.88,473.55,500,0.0,0,-122,11.855331476323766,409
2.891,472.85,500,0.0,0,20,6.3375757124911445,244
2.906,482.15999999999997,500,0.0,0,255,2.451288886052185,276
2.915,506.95,500,0.0,0,385,-1.8646464769195301,115
2.926,539.47,500,0.0,0,372,-14.316720906473265,13
2.935,559.51,500,0.0,0,340,-21.216098226909434,80
2.942,568.8199999999999,500,0.0,0,121,-14.770478726122516,386
2.951,567.0699999999999,500,0.0,0,-141,-13.286011669033439,383
2.958,558.28,500,0.0,0,-307,-4.45245652138517,350
2.965,535.95,500,0.0,0,-495,1.5318985665705451,289
2.975,515.03,500,0.0,0,-518,9.441944015274771,52
2.986,486.38,500,0.0,0,-473,11.505077066739968,86
2.996,468.45,500,0.0,0,-323,14.325179251878252,278
3.005,455.62,500,0.0,0,-92,11.337648132344917,305
3.01,459.14,500,0.0,0,159,10.957711628030136,351
3.015,471.97,500,0.0,0,333,-0.28676065108540305,257
3.027,483.04,500,0.0,0,417,-3.966673107917653,234
3.039,507.48,500,0.0,0,399,-6.014891030453569,50
3.052,524.0,500,0.0,0,324,-10.622166189403481,134
3.062,541.23,500,0.0,0,164,-8.8204383954217,170
3.07,544.39,500,0.0,0,-25,-11.323170010680856,268
3.083,534.72,500,0.0,0,-224,-5.108523655199387,216
3.095,514.16,500,0.0,0,-407,1.129082645024798,248
3.107,482.15999999999997,500,0.0,0,-470,6.598510328041807,74
3.117,447.01,500,0.0,0,-415,15.382080028786536,71
3.126,423.63,500,0.0,0,-246,24,194
3.139,418.0,500,0.0,0,-82,14.763809402607832,405
3.145,428.02,500,0.0,0,291,9.56100155038558,365
3.149,451.23,500,0.0,0,516,-5.564799337041423,322
3.153,466.69,500,0.0,0,586,-23.77617222004818,177
3.157,480.05,500,0.0,0,538,-15.499234414984866,201
3.161,490.6,500,0.0,0,343,-19.64690512413456,438
3.169,497.81,500,0.0,0,278,-8.780581742522521,431
3.178,504.65999999999997,500,0.0,0,154,-4.282826514819568,415
3.187,507.83000000000004,500,0.0,0,31,-3.4749322670413045,225
3.196,504.84000000000003,500,0.0,0,-63,-2.3734094791690095,97
3.206,499.74,500,0.0,0,-113,0.9785715174613538,71
3.214,490.25,500,0.0,0,-146,3.1636266158461472,35
3.226,483.39,500,0.0,0,-136,6.859176664486357,36
3.236,478.3,500,0.0,0,-95,3.9715096410854365,83
3.248,478.12,500,0.0,0,33,4.311093898964041,165
3.256,484.1,500,0.0,0,125,1.8752314633485505,80
3.267,493.06,500,0.0,0,178,-1.6852183990505898,84
3.279,505.19,500,0.0,0,200,-4.397935520335446,17
3.289,515.03,500,0.0,0,161,-5.4174386571358015,56
3.3,523.12,500,0.0,0,81,-4.956306877825598,117
3.31,523.47,500,0.0,0,-31,-6.311337098626894,130
3.321,518.55,500,0.0,0,-117,-2.078412997215567,109
3.328,511.16999999999996,500,0.0,0,-193,0.7652012107059127,147
3.333,496.4,500,0.0,0,-213,4.374803515361587,21
3.337,487.96,500,0.0,0,-201,18.55550500437308,38
3.341,483.04,500,0.0,0,-164,11.639443664851223,125
3.345,481.64,500,0.0,0,-41,7.4355744778408015,394
3.349,482.15999999999997,500,0.0,0,30,2.9022461836400626,297
3.361,483.57,500,0.0,0,67,0.5898898240440481,179
3.371,485.68,500,0.0,0,95,0.9010453831248633,55
3.383,495.16999999999996,500,0.0,0,104,0.1240545483951454,1
3.394,501.66999999999996,500,0.0,0,106,-4.322789194588181,7
3.404,507.65,500,0.0,0,104,-2.8066317288151823,6
3.417,511.69,500,0.0,0,35,-2.7269131253571746,107
3.424,509.76,500,0.0,0,-38,-3.794039721952815,59
3.433,506.77,500,0.0,0,-78,0.4409460961900932,54
3.44,501.66999999999996,500,0.0,0,-120,1.3485581335673298,78
3.45,496.23,500,0.0,0,-116,2.7227780333111733,22
3.459,490.41999999999996,500,0.0,0,-89,3.7226916099262177,38
3.465,487.26,500,0.0,0,-61,3.6968980614533655,67
3.479,486.21,500,0.0,0,18,3.6906687671401532,86
3.492,487.44,500,0.0,0,12,1.5152248957779284,82
3.509,495.35,500,0.0,0,125,0.6104275920130823,74
3.523,506.6,500,0.0,0,146,-1.779479000535905,17
3.532,522.24,500,0.0,0,147,-4.808286074728623,0
3.543,531.91,500,0.0,0,101,-8.848722064736211,51
3.558,534.9,500,0.0,0,40,-7.912461090417846,133
3.571,530.33,500,0.0,0,-132,-3.6711114052827756,211
3.584,505.37,500,0.0,0,-345,-0.36173436592759955,163
3.594,481.46,500,0.0,0,-386,9.14988290442344,44
3.608,451.4,500,0.0,0,-369,16.444809198612447,15
3.623,436.99,500,0.0,0,-236,12.758772020126578,258
3.633,437.69,500,0.0,0,220,10.625093619986313,372
3.64,466.34000000000003,500,0.0,0,494,4.748688043420503,273
3.654,506.41999999999996,500,0.0,0,655,-21.32058096785727,199
3.666,529.45,500,0.0,0,676,-15.66148903330742,39
3.676,564.08,500,0.0,0,306,-10.540566830452839,433
3.686,571.28,500,0.0,0,-90,-20.9203204919274,388
3.702,558.63,500,0.0,0,-294,-9.67008788415731,239
3.716,536.3,500,0.0,0,-514,-0.759108273261003,341
3.724,474.43,500,0.0,0,-711,6.36617379734715,168
3.734,424.15999999999997,500,0.0,0,-689,24,41
3.746,388.3,500,0.0,0,-529,24,219
3.759,370.37,500,0.0,0,-291,20.24809909130994,429
3.771,363.69,500,0.0,0,102,18.60179552859948,382
3.783,383.2,500,0.0,0,419,13.669326299679007,350
3.799,428.37,500,0.0,0,722,-0.6033402706308308,316
3.812,474.78,500,0.0,0,902,-6.986556604191286,249
3.821,564.4300000000001,500,0.0,0,774,-17.34038482720967,102
3.832,613.3,500,0.0,0,561,-24,254
3.847,635.8,500,0.0,0,257,-24,429
3.86,642.12,500,0.0,0,-55,-18.21969583195803,398
3.87,621.9100000000001,500,0.0,0,-410,-13.950555063260651,352
3.881,578.3199999999999,500,0.0,0,-710,-0.5672477964770462,317
3.895,525.58,500,0.0,0,-909,17.895293169857013,259
3.908,478.65,500,0.0,0,-884,15.565740527824616,66
3.918,425.03,500,0.0,0,-396,18.361436155602036,442
3.93,409.39,500,0.0,0,-40,24,394
3.947,419.23,500,0.0,0,300,13.801705410733895,364
3.963,450.7,500,0.0,0,569,3.2574438807799537,331
3.973,520.48,500,0.0,0,883,-5.731282912669429,256
3.985,601.34,500,0.0,0,873,-24,13
4.002,661.11,500,0.0,0,665,-24,219
4.015,686.95,500,0.0,0,406,-24,445
4.028,701.01,500,0.0,0,-116,-24,385
4.038,680.0899999999999,500,0.0,0,-431,-20.565051373377585,351
4.056,627.53,500,0.0,0,-765,-1.1176437717494991,311
4.068,584.12,500,0.0,0,-943,2.96408279959366,290
4.075,478.12,500,0.0,0,-876,14.953856890728279,52
4.087,428.02,500,0.0,0,-761,24,155
4.094,396.73,500,0.0,0,-484,24,438
4.098,377.22,500,0.0,0,-186,24,417
4.103,374.58,500,0.0,0,-52,24,441
4.107,375.82,500,0.0,0,87,13.426086587635842,385
4.111,379.86,500,0.0,0,190,8.511644356406576,373
4.115,386.19,500,0.0,0,300,4.722939068249229,311
4.125,394.62,500,0.0,0,347,1.336879363787765,175
4.143,403.59000000000003,500,0.0,0,379,5.408533861133279,72
4.153,437.87,500,0.0,0,381,4.7830758262253745,6
4.163,478.82,500,0.0,0,469,-10.733075875055656,80
4.176,510.46000000000004,500,0.0,0,521,-21.31087372625361,59
4.187,531.21,500,0.0,0,328,-14.130833189083683,314
4.198,541.58,500,0.0,0,31,-11.220353316134517,397
4.206,529.27,500,0.0,0,-312,-9.265678471650281,332
4.216,509.40999999999997,500,0.0,0,-454,3.6158938183763856,240
4.229,477.24,500,0.0,0,-592,9.032556514777669,171
4.244,445.42,500,0.0,0,-489,14.112413713317729,141
4.257,416.77,500,0.0,0,-249,15.558754988919468,258
4.265,412.73,500,0.0,0,86,18.528872779573636,350
4.283,432.24,500,0.0,0,419,8.967095645846973,350
4.296,463.53,500,0.0,0,648,-0.3054396031402007,323
4.309,541.75,500,0.0,0,828,-6.837202878538727,135
4.317,616.28,500,0.0,0,741,-24,90
4.332,659.88,500,0.0,0,540,-24,235
4.341,683.26,500,0.0,0,208,-24,422
4.351,686.77,500,0.0,0,-44,-24,393
4.366,678.3299999999999,500,0.0,0,-273,-16.08691097302434,368
4.373,642.12,500,0.0,0,-602,-10.912613245666991,330
4.377,586.23,500,0.0,0,-878,24,297
4.381,556.17,500,0.0,0,-951,24,174
4.385,537.01,500,0.0,0,-674,24,469
4.399,520.48,500,0.0,0,-705,16.2757878011831,474
4.408,504.65999999999997,500,0.0,0,-555,3.9059188129897735,458
4.418,474.78,500,0.0,0,-120,7.620683139062408,405
4.428,472.32,500,0.0,0,-24,14.45364257954521,94
4.449,477.07,500,0.0,0,140,3.097966630021858,175
4.459,505.37,500,0.0,0,477,0.08406933175072573,318
4.468,544.5699999999999,500,0.0,0,506,-14.500137365454172,14
4.479,573.75,500,0.0,0,478,-24,47
4.492,586.9300000000001,500,0.0,0,208,-15.641976965845771,398
4.51,590.27,500,0.0,0,-135,-12.975871440133478,380
4.52,571.11,500,0.0,0,-419,-8.234676561077018,352
4.531,501.32,500,0.0,0,-788,4.819235041038487,248
4.544,458.08,500,0.0,0,-848,24,113
4.56,397.08,500,0.0,0,-675,24,193
4.575,367.38,500,0.0,0,-349,24,434
4.593,356.83,500,0.0,0,111,18.92254448893148,382
4.608,395.33,500,0.0,0,567,15.660024463619983,331
4.62,451.23,500,0.0,0,851,-3.137107161268629,299
4.63,553.53,500,0.0,0,1185,-21.6724491638898,261
4.641,627.71,500,0.0,0,1038,-24,192
4.656,680.97,500,0.0,0,665,-24,472
4.671,712.44,500,0.0,0,337,-24,441
4.686,722.98,500,0.0,0,-62,-24,386
4.696,684.8399999999999,500,0.0,0,-569,-22.02820439695747,334
4.701,633.86,500,0.0,0,-828,12.61146021802301,305
4.705,598.0,500,0.0,0,-972,24,289
4.709,578.3199999999999,500,0.0,0,-668,24,395
4.713,561.97,500,0.0,0,-693,18.464145984141375,473
4.717,545.8,500,0.0,0,-625,15.579821191698787,464
4.726,532.61,500,0.0,0,-464,16.666342240088284,453
4.739,522.59,500,0.0,0,-372,2.5503442131767886,436
4.753,510.28999999999996,500,0.0,0,-60,2.39743594004039,395
4.762,513.28,500,0.0,0,56,3.3174033489394947,49
4.781,521.01,500,0.0,0,103,-2.670115137541268,40
4.793,528.5699999999999,500,0.0,0,147,-3.946724678982173,61
4.803,538.59,500,0.0,0,75,-5.689662124811724,69
4.817,540.35,500,0.0,0,26,-6.934095432195496,95
4.831,534.37,500,0.0,0,-120,-3.8466920793167523,140
4.845,516.26,500,0.0,0,-276,-0.31760068402199026,144
4.852,492.89,500,0.0,0,-337,5.615362023650091,56
4.865,468.28,500,0.0,0,-319,12.200435986285735,13
4.882,452.28,500,0.0,0,-207,13.716548797806936,163
4.894,446.83,500,0.0,0,28,8.529257498247988,310
4.904,470.74,500,0.0,0,434,6.5456946907787525,303
4.917,505.53999999999996,500,0.0,0,535,-7.589129065563835,155
4.933,548.96,500,0.0,0,646,-16.216675250236726,90
4.948,583.94,500,0.0,0,457,-16.63557442775227,243
4.956,603.1,500,0.0,0,-38,-21.3422568343558,396
4.968,587.81,500,0.0,0,-361,-17.094567812259577,356
4.983,555.99,500,0.0,0,-617,1.2977081451647425,328
4.997,515.91,500,0.0,0,-816,4.15742696374843,306
5.006,435.40999999999997,500,0.0,0,-685,15.385566763007702,106
5.018,392.87,500,0.0,0,-551,24,161
5.034,369.31,500,0.0,0,-219,24,418
5.047,366.32,500,0.0,0,56,17.35285151364944,385
5.061,399.72,500,0.0,0,535,12.003703583437442,334
5.07,447.53,500,0.0,0,793,-2.2868126987046065,305
5.077,532.26,500,0.0,0,1024,-24,193
5.081,567.59,500,0.0,0,962,-24,160
5.086,596.0699999999999,500,0.0,0,655,-24,473
5.09,612.0699999999999,500,0.0,0,638,-24,472
5.094,625.78,500,0.0,0,505,-24,454
5.098,636.6700000000001,500,0.0,0,371,-24,441
5.11,644.23,500,0.0,0,263,-24,428
5.12,648.8,500,0.0,0,147,-14.270849931729824,413
5.129,643.1800000000001,500,0.0,0,-245,-13.924226410987318,370
5.146,617.1600000000001,500,0.0,0,-501,-8.826592814853987,313
5.159,578.49,500,0.0,0,-712,0.11993940157693572,278
5.169,514.33,500,0.0,0,-849,8.835833865725029,130
5.178,449.64,500,0.0,0,-771,24,86
5.189,415.54,500,0.0,0,-599,24,292
5.198,393.04,500,0.0,0,-350,17.91724785461245,432
5.21,382.32,500,0.0,0,30,22.364805817639443,387
5.22,391.81,500,0.0,0,284,14.685730738746969,367
5.227,416.42,500,0.0,0,536,3.844864888202909,338
5.234,454.74,500,0.0,0,746,-8.743680596493164,311
5.248,491.83000000000004,500,0.0,0,769,-15.724155203458816,10
5.258,531.38,500,0.0,0,562,-13.623034181443911,286
5.27,558.28,500,0.0,0,198,-24,419
5.28,561.79,500,0.0,0,-27,-15.845850348225268,350
5.294,546.67,500,0.0,0,-354,-6.889917054802211,357
5.302,519.78,500,0.0,0,-576,2.369606377414943,332
5.317,474.96,500,0.0,0,-662,9.502383331526952,99
5.324,430.48,500,0.0,0,-575,22.164562029770444,117
5.335,400.07,500,0.0,0,-355,24,279
5.341,390.23,500,0.0,0,-134,23.07012116221708,410
5.356,391.64,500,0.0,0,144,13.503731545733292,388
5.365,410.44,500,0.0,0,425,8.223373417084979,345
5.368,456.15,500,0.0,0,693,-12.917967856549334,271
5.372,476.89,500,0.0,0,756,-24,123
5.376,492.36,500,0.0,0,573,-23.912125790593205,396
5.381,505.37,500,0.0,0,507,-18.7147069268379,453
5.395,516.44,500,0.0,0,394,-11.449285234799031,441
5.403,526.46,500,0.0,0,243,-5.138857474585958,423
5.41,532.26,500,0.0,0,-21,-8.281333971553215,285
5.418,526.81,500,0.0,0,-135,-7.254542437078108,110
5.426,518.9,500,0.0,0,-240,0.41742221363653975,184
5.436,500.8,500,0.0,0,-354,3.6185694552004732,143
5.445,485.33,500,0.0,0,-328,11.517224329678628,44
5.457,470.74,500,0.0,0,-260,7.900121528695508,117
5.464,463.18,500,0.0,0,-53,9.679801687919158,297
5.476,466.52,500,0.0,0,114,6.807723055231397,184
5.487,478.12,500,0.0,0,266,1.2414102012860175,215
5.498,500.62,500,0.0,0,375,-2.953142655769129,128
5.513,527.16,500,0.0,0,370,-11.282068529450239,6
5.521,548.78,500,0.0,0,303,-12.239260543355908,103
5.533,561.09,500,0.0,0,61,-13.728233805055506,295
5.554,555.99,500,0.0,0,-181,-10.966649927162553,295
5.566,537.53,500,0.0,0,-406,-3.3292804203958584,308
5.574,459.31,500,0.0,0,-742,6.201942673700595,198
5.585,414.31,500,0.0,0,-760,24,1
5.602,361.93,500,0.0,0,-545,24,215
5.618,345.05,500,0.0,0,-341,24,432
5.624,336.44,500,0.0,0,168,19.597999843554728,376
5.637,361.4,500,0.0,0,478,16.78595128443341,340
5.642,398.14,500,0.0,0,713,-3.0705589560193154,313
5.647,444.9,500,0.0,0,917,-24,290
5.651,470.39,500,0.0,0,867,-24,171
5.655,488.32,500,0.0,0,647,-24,469
5.659,502.90999999999997,500,0.0,0,598,-21.63984992658864,462
5.663,516.62,500,0.0,0,493,-18.545474728625614,452
5.678,526.99,500,0.0,0,360,-18.631136763548163,437
5.693,534.37,500,0.0,0,256,-5.034524426783241,464
5.704,532.44,500,0.0,0,-242,-5.073342196180798,370
5.715,497.46000000000004,500,0.0,0,-383,-1.6964465215369675,82
5.729,477.77,500,0.0,0,-426,13.47961027273706,77
5.74,443.14,500,0.0,0,-419,10.627906206380393,2
5.751,429.43,500,0.0,0,-167,23.506749478973287,365
5.763,425.39,500,0.0,0,42,10.117613159741138,269
5.77,444.02,500,0.0,0,395,7.915521901070834,349
5.774,472.14,500,0.0,0,557,-19.331532613323922,196
5.779,487.26,500,0.0,0,574,-24,134
5.783,497.98,500,0.0,0,372,-14.154099670701482,437
5.787,506.41999999999996,500,0.0,0,316,-16.18506115355639,432
5.791,513.63,500,0.0,0,253,-11.257022618322988,394
5.802,517.67,500,0.0,0,136,-10.037212652879152,411
5.812,519.96,500,0.0,0,60,-3.041182384845418,297
5.822,513.8,500,0.0,0,-171,-2.933920170783937,238
5.832,503.08000000000004,500,0.0,0,-222,1.8772615029515085,46
5.845,489.55,500,0.0,0,-249,3.5139038110371392,40
5.859,471.09000000000003,500,0.0,0,-188,7.536397065857065,66
5.869,462.48,500,0.0,0,-118,8.021048508731015,96
5.878,462.65,500,0.0,0,77,9.1012197875665,178
5.889,469.15999999999997,500,0.0,0,183,2.8706916375216074,180
5.901,484.98,500,0.0,0,328,-0.05205995719062795,192
5.913,511.52,500,0.0,0,368,-7.598856769077693,24
5.927,530.33,500,0.0,0,325,-9.223537643906276,36
5.941,551.25,500,0.0,0,118,-11.878895949891596,203
5.955,551.95,500,0.0,0,-19,-10.701736392912107,248
5.959,529.98,500,0.0,0,-373,-4.559762815976241,264
5.963,500.09000000000003,500,0.0,0,-545,24,213
5.967,487.44,500,0.0,0,-545,24,50
5.971,476.71,500,0.0,0,-354,16.590591072052586,432
5.975,468.1,500,0.0,0,-331,15.284318279714782,432
5.979,461.77,500,0.0,0,-204,13.188834595326723,417
5.994,458.43,500,0.0,0,-102,10.905798041157924,404
6.007,457.55,500,0.0,0,-57,4.262426774716491,337
6.018,474.08,500,0.0,0,307,3.711376179093301,243
6.024,502.38,500,0.0,0,375,-4.828490551229123,60
6.036,529.98,500,0.0,0,408,-24,41
6.046,541.23,500,0.0,0,363,-12.97163734514363,159
6.058,551.77,500,0.0,0,41,-8.935621661954784,435
6.066,543.69,500,0.0,0,-225,-9.480637111441212,308
6.076,525.23,500,0.0,0,-366,0.4622717682164339,186
6.092,498.69,500,0.0,0,-500,8.143152812820066,186
6.104,472.85,500,0.0,0,-475,7.388239882566948,61
6.116,439.1,500,0.0,0,-176,13.837707642078916,223
6.123,433.12,500,0.0,0,-38,18.887533123243333,187
6.134,442.44,500,0.0,0,249,11.363595418760665,324
6.149,452.46,500,0.0,0,385,1.5153088695580612,350
6.16,497.46000000000004,500,0.0,0,626,-0.03698342834556767,221
6.168,546.85,500,0.0,0,626,-20.218609798825696,22
6.18,585.0,500,0.0,0,573,-24,64
6.197,602.22,500,0.0,0,355,-21.485111499040887,438
6.206,615.58,500,0.0,0,59,-14.041489655813386,395
6.214,594.49,500,0.0,0,-419,-15.429117674601105,350
6.231,560.56,500,0.0,0,-643,1.0422946581461288,290
6.244,501.32,500,0.0,0,-912,5.334215420862223,294
6.257,415.89,500,0.0,0,-783,24,111
6.269,373.88,500,0.0,0,-639,24,219
6.282,347.51,500,0.0,0,-343,23.098804211865584,431
6.296,336.97,500,0.0,0,99,24,382
6.303,353.14,500,0.0,0,380,16.845386377096506,352
6.311,400.78,500,0.0,0,707,-1.6581713381214307,313
6.324,426.44,500,0.0,0,831,-24,302
6.337,456.85,500,0.0,0,789,-1.5211157106302204,127
6.346,506.25,500,0.0,0,267,-11.597300678834085,426
6.357,519.6,500,0.0,0,213,-22.79730907563479,59
6.371,525.9300000000001,500,0.0,0,-25,-8.127422205861059,293
6.386,516.97,500,0.0,0,-257,-3.9068135889029514,367
6.398,480.05,500,0.0,0,-466,2.2200624126150097,153
6.405,443.84000000000003,500,0.0,0,-505,15.924668145792847,37
6.424,407.1,500,0.0,0,-412,19.81978378563448,93
6.43,393.75,500,0.0,0,-113,21.294155876770333,403
6.44,401.48,500,0.0,0,245,21.68112127524668,364
6.449,411.32,500,0.0,0,372,4.528209203993864,350
6.465,449.29,500,0.0,0,674,0.8461739454258606,317
6.479,483.22,500,0.0,0,693,-6.547684570120552,31
6.489,554.58,500,0.0,0,656,-14.145295082114655,35
6.499,592.2,500,0.0,0,475,-24,226
6.519,612.24,500,0.0,0,162,-20.937331703365913,384
