time,motor_angle,motor_setpoint,pendulum_angle,pendulum_setpoint,rpm,voltage,current
2.92,0.0,0,0.0,0,0,0,0
2.931,0.0,0,0.0,0,0,8.7,0
2.943,0.0,0,0.0,0,0,8.7,0
2.956,9.14,0,0.0,0,179,8.7,213
2.97,37.96,0,0.0,0,408,8.7,187
2.979,61.17,0,0.0,0,514,8.7,173
2.987,117.07,0,0.0,0,688,8.7,160
2.999,148.71,0,0.0,0,762,8.7,142
3.006,215.5,0,0.0,0,890,8.7,127
3.009,264.72,0,0.0,0,963,8.7,117
3.02,288.28,0,0.0,0,996,8.7,113
3.028,309.19,0,0.0,0,1025,8.7,111
3.037,379.51,0,0.0,0,1108,8.7,101
3.043,431.36,0,0.0,0,1159,8.7,95
3.054,502.73,0,0.0,0,1222,8.7,86
3.065,544.92,0,0.0,0,1254,8.7,83
3.074,636.3199999999999,0,0.0,0,1319,8.7,78
3.084,703.65,0,0.0,0,1364,8.7,69
3.089,804.02,0,0.0,0,1417,8.7,63
3.099,869.76,0,0.0,0,1448,8.7,58
3.106,940.95,0,0.0,0,1480,8.7,56
3.113,1009.86,0,0.0,0,1514,8.7,52
3.126,1071.56,0,0.0,0,1535,8.7,48
3.139,1169.64,0,0.0,0,1568,8.7,44
3.146,1323.8,0,0.0,0,1615,8.7,40
3.157,1397.46,0,0.0,0,1634,8.7,37
3.167,1486.58,0,0.0,0,1658,8.7,36
3.176,1580.44,0,0.0,0,1680,8.7,33
3.184,1678.88,0,0.0,0,1705,8.7,33
3.191,1755.17,0,0.0,0,1718,8.7,30
3.198,1849.04,0,0.0,0,1732,8.7,31
3.204,1923.92,0,0.0,0,1748,8.7,29
3.213,1989.49,0,0.0,0,1763,8.7,28
3.219,2058.2200000000003,0,0.0,0,1775,8.7,27
3.232,2143.4700000000003,0,0.0,0,1794,8.7,26
3.235,2282.87,0,0.0,0,1816,8.7,24
3.242,2345.97,0,0.0,0,1821,8.7,23
3.251,2383.76,0,0.0,0,1831,8.7,24
3.262,2487.83,0,0.0,0,1842,8.7,20
3.269,2576.25,0,0.0,0,1853,8.7,21
3.276,2707.38,0,0.0,0,1870,8.7,18
3.285,2759.23,0,0.0,0,1872,8.7,19
3.289,2850.11,0,0.0,0,1886,8.7,16
3.299,2939.58,0,0.0,0,1889,8.7,17
3.305,3002.69,0,0.0,0,1901,8.7,15
3.313,3126.79,0,0.0,0,1907,8.7,15
3.322,3175.48,0,0.0,0,1911,8.7,12
3.329,3267.59,0,0.0,0,1919,8.7,14
3.341,3364.62,0,0.0,0,1930,8.7,12
3.356,3509.12,0,0.0,0,1936,8.7,11
3.363,3631.81,0,0.0,0,1939,8.7,11
3.371,3779.29,0,0.0,0,1950,8.7,9
3.383,3850.83,0,0.0,0,1952,8.7,10
3.389,3984.96,0,0.0,0,1960,8.7,9
3.395,4073.9,0,0.0,0,1962,8.7,7
3.403,4143.51,0,0.0,0,1967,8.7,7
3.413,4229.29,0,0.0,0,1970,8.7,6
3.421,4356.03,0,0.0,0,1975,8.7,8
3.431,4447.96,0,0.0,0,1978,8.7,5
3.436,4520.91,0,0.0,0,1980,8.7,7
3.442,4656.79,0,0.0,0,1977,8.7,4
3.45,4706.89,0,0.0,0,1985,8.7,6
3.457,4792.32,0,0.0,0,1983,8.7,4
3.463,4877.05,0,0.0,0,1989,8.7,6
3.47,4947.89,0,0.0,0,1991,8.7,4
3.48,5033.14,0,0.0,0,1994,8.7,4
3.489,5159.35,0,0.0,0,1992,8.7,3
3.493,5289.6,0,0.0,0,1997,8.7,4
3.5,5346.21,0,0.0,0,1999,8.7,3
3.507,5395.95,0,0.0,0,1998,8.7,3
3.521,5489.29,0,0.0,0,1999,8.7,2
3.528,5602.85,0,0.0,0,2005,8.7,4
3.537,5718.51,0,0.0,0,2010,8.7,2
3.543,5805.52,0,0.0,0,2008,8.7,4
3.551,5913.8,0,0.0,0,2009,8.7,2
3.56,5987.81,0,0.0,0,2002,8.7,4
3.569,6098.37,0,0.0,0,2002,8.7,1
3.579,6196.81,0,0.0,0,2000,8.7,4
3.584,6364.51,0,0.0,0,2009,8.7,4
3.594,6423.04,0,0.0,0,2015,8.7,1
3.603,6502.85,0,0.0,0,2010,8.7,3
3.609,6599.17,0,0.0,0,2010,8.7,1
3.618,6714.14,0,0.0,0,2012,8.7,3
3.625,6787.79,0,0.0,0,2013,8.7,1
3.632,6922.26,0,0.0,0,2015,8.7,1
3.636,7007.87,0,0.0,0,2010,8.7,0
3.641,7065.35,0,0.0,0,2014,8.7,3
3.645,7115.62,0,0.0,0,2021,8.7,1
3.649,7163.08,0,0.0,0,2020,8.7,0
3.657,7213.35,0,0.0,0,2023,8.7,2
3.662,7279.45,0,0.0,0,2010,8.7,2
3.666,7360.48,0,0.0,0,2017,8.7,0
3.67,7411.28,0,0.0,0,2016,8.7,2
3.674,7460.5,0,0.0,0,2020,8.7,1
3.678,7510.95,0,0.0,0,2020,8.7,1
3.682,7561.05,0,0.0,0,2016,8.7,1
3.686,7609.92,0,0.0,0,2022,8.7,3
3.69,7659.31,0,0.0,0,2020,8.7,0
3.694,7708.18,0,0.0,0,2016,8.7,0
3.698,7758.45,0,0.0,0,2016,8.7,2
3.702,7807.67,0,0.0,0,2020,8.7,3
3.707,7857.94,0,0.0,0,2021,8.7,1
3.71,7906.99,0,0.0,0,2017,8.7,0
3.715,7959.37,0,0.0,0,2023,8.7,2
3.719,8005.78,0,0.0,0,2020,8.7,1
3.723,8057.81,0,0.0,0,2015,8.7,1
3.727,8105.44,0,0.0,0,2020,8.7,1
3.737,8155.72,0,0.0,0,2021,8.7,2
3.748,8206.17,0,0.0,0,2016,8.7,0
3.76,8335.72,0,0.0,0,2019,8.7,3
3.768,8469.14,0,0.0,0,2020,8.7,1
3.777,8649.66,0,0.0,0,2020,8.7,1
3.784,8727.01,0,0.0,0,2018,8.7,0
3.788,8813.49,0,0.0,0,2018,8.7,0
3.794,8899.62,0,0.0,0,2018,8.7,1
3.801,8950.25,0,0.0,0,2022,8.7,0
3.805,9018.28,0,0.0,0,2017,8.7,2
3.809,9099.14,0,0.0,0,2018,8.7,0
3.813,9148.53,0,0.0,0,2022,8.7,0
3.817,9202.5,0,0.0,0,2021,8.7,2
3.821,9251.19,0,0.0,0,2022,8.7,2
3.825,9301.81,0,0.0,0,2023,8.7,1
3.832,9346.81,0,0.0,0,2022,8.7,0
3.837,9395.15,0,0.0,0,2024,8.7,2
3.841,9489.19,0,0.0,0,2023,8.7,0
3.846,9550.01,0,0.0,0,2021,8.7,1
3.852,9597.12,0,0.0,0,2016,8.7,2
3.858,9647.05,0,0.0,0,2026,8.7,0
3.862,9726.85,0,0.0,0,2023,8.7,0
3.867,9795.93,0,0.0,0,2027,8.7,2
3.874,9844.62,0,0.0,0,2018,8.7,0
3.879,9905.62,0,0.0,0,2023,8.7,1
3.887,9991.4,0,0.0,0,2024,8.7,0
3.894,10044.14,0,0.0,0,2021,8.7,0
3.915,10154.53,0,0.0,0,2023,8.7,1
3.92,10392.71,0,0.0,0,2023,8.7,0
3.929,10492.03,0,0.0,0,2021,8.7,2
3.936,10557.07,0,0.0,0,2020,8.7,0
3.94,10667.81,0,0.0,0,2017,8.7,2
3.945,10745.33,0,0.0,0,2021,8.7,0
3.953,10790.85,0,0.0,0,2024,8.7,0
3.96,10875.05,0,0.0,0,2015,8.7,1
3.969,10951.52,0,0.0,0,2022,8.7,0
3.979,11034.66,0,0.0,0,2025,8.7,2
3.987,11165.62,0,0.0,0,2022,8.7,1
3.993,11270.39,0,0.0,0,2023,8.7,0
4.001,11386.58,0,0.0,0,2021,8.7,2
4.009,11443.53,0,0.0,0,2021,8.7,0
4.013,11586.62,0,0.0,0,2023,8.7,2
4.017,11636.36,0,0.0,0,2019,8.7,1
4.023,11684.35,0,0.0,0,2025,8.7,0
4.036,11731.64,0,0.0,0,2023,8.7,2
4.045,11867.16,0,0.0,0,2023,8.7,0
4.053,11960.15,0,0.0,0,2027,8.7,0
4.059,12066.85,0,0.0,0,2021,8.7,0
4.067,12177.42,0,0.0,0,2023,8.7,0
4.074,12260.74,0,0.0,0,2020,8.7,2
4.083,12359.53,0,0.0,0,2021,8.7,1
4.094,12428.43,0,0.0,0,2020,8.7,0
4.1,12565.72,0,0.0,0,2023,8.7,0
4.113,12671.89,0,0.0,0,2023,8.7,2
4.124,12751.69,0,0.0,0,2022,8.7,0
4.133,12920.44,0,0.0,0,2026,8.7,0
4.142,13034.35,0,0.0,0,2025,8.7,1
4.155,13157.92,0,0.0,0,2022,8.7,1
4.164,13245.64,0,0.0,0,2028,8.7,0
4.179,13397.87,0,0.0,0,2030,8.7,1
4.187,13548.33,0,0.0,0,2030,8.7,2
4.196,13719.02,0,0.0,0,2027,8.7,2
4.204,13794.78,0,0.0,0,2019,8.7,0
4.211,13902.18,0,0.0,0,2027,8.7,2
4.218,14020.31,0,0.0,0,2027,8.7,0
4.228,14106.79,0,0.0,0,2023,8.7,2
4.24,14168.67,0,0.0,0,2017,8.7,0
4.247,14289.43,0,0.0,0,2023,8.7,2
4.255,14454.49,0,0.0,0,2023,8.7,1
4.259,14535.35,0,0.0,0,2017,8.7,0
4.268,14615.85,0,0.0,0,2024,8.7,2
4.28,14667.36,0,0.0,0,2023,8.7,0
4.292,14808.16,0,0.0,0,2025,8.7,2
4.304,14939.82,0,0.0,0,2020,8.7,0
4.313,15077.98,0,0.0,0,2030,8.7,0
4.33,15218.43,0,0.0,0,2020,8.7,0
4.337,15424.62,0,0.0,0,2021,8.7,0
4.347,15531.32,0,0.0,0,2021,8.7,2
4.354,15638.73,0,0.0,0,2024,8.7,0
4.359,15763.88,0,0.0,0,2020,8.7,0
4.369,15810.99,0,0.0,0,2029,8.7,0
4.376,15888.16,0,0.0,0,2026,8.7,2
4.384,16002.07,0,0.0,0,2024,8.7,0
4.396,16088.2,0,0.0,0,2026,8.7,2
4.402,16201.75,0,0.0,0,2026,8.7,1
4.409,16332.36,0,0.0,0,2026,8.7,0
4.417,16407.59,0,0.0,0,2025,8.7,2
4.426,16478.08,0,0.0,0,2023,8.7,1
4.433,16588.12,0,0.0,0,2023,8.7,2
4.441,16702.55,0,0.0,0,2024,8.7,0
4.449,16772.51,0,0.0,0,2023,8.7,2
4.455,16879.21,0,0.0,0,2025,8.7,0
4.464,16964.64,0,0.0,0,2019,8.7,2
4.472,17064.66,0,0.0,0,2025,8.7,0
4.477,17151.32,0,0.0,0,2024,8.7,2
4.493,17249.58,0,0.0,0,2021,8.7,0
4.501,17320.07,0,0.0,0,2019,8.7,2
4.511,17508.51,0,0.0,0,2029,8.7,2
4.519,17649.49,0,0.0,0,2023,8.7,1
4.526,17725.25,0,0.0,0,2022,8.7,0
4.533,17835.64,0,0.0,0,2020,8.7,1
4.538,17907.18,0,0.0,0,2026,8.7,0
4.543,17995.42,0,0.0,0,2026,8.7,0
4.55,18046.05,0,0.0,0,2023,8.7,2
4.557,18145.01,0,0.0,0,2019,8.7,0
4.563,18197.92,0,0.0,0,2023,8.7,2
4.574,18283.71,0,0.0,0,2021,8.7,0
4.58,18368.26,0,0.0,0,2020,8.7,0
4.587,18494.29,0,0.0,0,2023,8.7,1
4.6,18566.01,0,0.0,0,2024,8.7,2
4.607,18715.42,0,0.0,0,2025,8.7,0
4.616,18815.09,0,0.0,0,2023,8.7,0
4.626,18945.7,0,0.0,0,2020,8.7,2
4.633,19027.61,0,0.0,0,2023,8.7,0
4.644,19147.5,0,0.0,0,2022,8.7,1
4.658,19211.13,0,0.0,0,2022,8.7,0
4.671,19349.47,0,0.0,0,2023,8.7,0
4.677,19515.41,0,0.0,0,2015,8.7,1
4.688,19684.86,0,0.0,0,2023,8.7,2
4.695,19772.22,0,0.0,0,2020,8.7,0
4.707,19870.31,0,0.0,0,2024,8.7,1
4.716,19994.58,0,0.0,0,2023,8.7,1
4.724,20123.61,0,0.0,0,2023,8.7,0
4.737,20216.25,0,0.0,0,2023,8.7,2
4.748,20355.64,0,0.0,0,2023,8.7,1
4.755,20458.65,0,0.0,0,2024,8.7,0
4.764,20608.41,0,0.0,0,2023,8.7,0
4.775,20686.28,0,0.0,0,2029,8.7,0
4.785,20803.71,0,0.0,0,2022,8.7,0
4.792,20944.51,0,0.0,0,2023,8.7,2
4.802,21068.26,0,0.0,0,2022,8.7,0
4.813,21129.08,0,0.0,0,2019,8.7,2
4.823,21265.83,0,0.0,0,2025,8.7,1
4.829,21432.3,0,0.0,0,2022,8.7,0
4.846,21501.91,0,0.0,0,2021,8.7,1
4.854,21602.63,0,0.0,0,2023,8.7,0
4.862,21786.15,0,0.0,0,2022,8.7,1
4.87,21912.71,0,0.0,0,2023,8.7,0
4.878,21984.96,0,0.0,0,2023,8.7,2
4.883,22083.75,0,0.0,0,2019,8.7,0
4.9,22179.02,0,0.0,0,2021,8.7,2
4.911,22245.29,0,0.0,0,2028,8.7,0
4.924,22509.84,0,0.0,0,2023,8.7,1
4.932,22640.8,0,0.0,0,2024,8.7,0
4.94,22774.57,0,0.0,0,2023,8.7,0
4.951,22838.37,0,0.0,0,2023,8.7,0
4.958,22955.62,0,0.0,0,2029,8.7,0
4.965,23061.44,0,0.0,0,2027,8.7,2
4.979,23162.34,0,0.0,0,2021,8.7,0
4.989,23239.86,0,0.0,0,2022,8.7,1
4.997,23455.19,0,0.0,0,2025,8.7,3
5.008,23538.51,0,0.0,0,2023,8.7,0
5.014,23645.56,0,0.0,0,2022,8.7,2
5.023,23761.23,0,0.0,0,2023,8.7,0
5.029,23862.65,0,0.0,0,2024,8.7,0
5.035,23930.68,0,0.0,0,2027,8.7,0
5.045,24015.41,0,0.0,0,2023,8.7,1
5.055,24118.94,0,0.0,0,2023,8.7,0
5.062,24203.84,0,0.0,0,2025,8.7,1
5.072,24324.08,0,0.0,0,2021,8.7,2
5.081,24424.45,0,0.0,0,2020,8.7,0
5.091,24547.5,0,0.0,0,2023,8.7,2
5.097,24651.38,0,0.0,0,2024,8.7,0
5.105,24763.71,0,0.0,0,2022,8.7,0
5.112,24851.95,0,0.0,0,2022,8.7,1
5.121,24934.21,0,0.0,0,2023,8.7,0
5.129,25061.3,0,0.0,0,2022,8.7,2
5.145,25118.43,0,0.0,0,2023,8.7,1
5.173,25327.61,0,0.0,0,2024,8.7,0
5.191,25693.94,0,0.0,0,2024,8.7,0
5.202,25768.82,0,0.0,0,2022,8.7,2
5.209,26050.95,0,0.0,0,2022,8.7,0
5.219,26109.49,0,0.0,0,2023,8.7,0
5.226,26253.8,0,0.0,0,2024,8.7,0
5.234,26342.05,0,0.0,0,2026,8.7,3
5.239,26400.93,0,0.0,0,2024,8.7,1
5.246,26500.78,0,0.0,0,2021,8.7,2
5.255,26555.97,0,0.0,0,2021,8.7,0
5.263,26675.68,0,0.0,0,2023,8.7,2
5.272,26754.78,0,0.0,0,2020,8.7,0
5.279,26854.1,0,0.0,0,2021,8.7,2
5.294,26955.7,0,0.0,0,2024,8.7,0
5.304,27038.67,0,0.0,0,2023,8.7,2
5.312,27220.07,0,0.0,0,2026,8.7,2
5.315,27353.14,0,0.0,0,2024,8.7,0
5.324,27438.92,0,0.0,0,2018,8.7,1
5.332,27491.66,0,0.0,0,2021,8.7,0
5.34,27612.24,0,0.0,0,2027,8.7,1
5.347,27690.82,0,0.0,0,2030,8.7,0
5.352,27792.94,0,0.0,0,2016,8.7,1
5.358,27882.59,0,0.0,0,2023,8.7,0
5.367,27943.94,0,0.0,0,2029,8.7,2
5.377,28022.51,0,0.0,0,2027,8.7,0
5.385,28120.25,0,0.0,0,2023,8.7,2
5.39,28252.26,0,0.0,0,2016,8.7,0
5.399,28336.11,0,0.0,0,2023,8.7,1
5.406,28413.98,0,0.0,0,2024,8.7,0
5.411,28537.03,0,0.0,0,2022,8.7,0
5.421,28583.08,0,0.0,0,2018,8.7,0
5.428,28667.63,0,0.0,0,2018,8.7,2
5.436,28772.4,0,0.0,0,2021,8.7,0
5.443,28856.42,0,0.0,0,2022,8.7,2
5.447,28957.85,0,0.0,0,2023,8.7,0
5.458,29037.12,0,0.0,0,2019,8.7,2
5.469,29085.29,0,0.0,0,2028,8.7,0
5.476,29220.99,0,0.0,0,2025,8.7,2
5.49,29355.46,0,0.0,0,2023,8.7,1
5.497,29437.2,0,0.0,0,2028,8.7,0
5.506,29607.36,0,0.0,0,2023,8.7,0
5.525,29692.08,0,0.0,0,2017,8.7,0
5.535,29839.57,0,0.0,0,2023,8.7,0
5.546,30073.88,0,0.0,0,2022,8.7,1
5.556,30185.15,0,0.0,0,2029,8.7,0
5.562,30305.56,0,0.0,0,2023,8.7,2
5.574,30420.17,0,0.0,0,2023,8.7,0
5.582,30532.67,0,0.0,0,2022,8.7,0
5.602,30647.98,0,0.0,0,2028,8.7,2
5.61,30723.75,0,0.0,0,2021,8.7,0
5.628,30973.35,0,0.0,0,2030,8.7,1
5.645,31067.4,0,0.0,0,2025,8.7,0
5.66,31412.46,0,0.0,0,2022,8.7,0
5.679,31507.38,0,0.0,0,2025,8.7,1
5.686,31684.39,0,0.0,0,2025,8.7,0
5.696,31913.61,0,0.0,0,2023,8.7,2
5.701,32047.03,0,0.0,0,2024,8.7,0
5.718,32119.62,0,0.0,0,2027,8.7,1
5.729,32289.78,0,0.0,0,2026,8.7,2
5.745,32389.27,0,0.0,0,2024,8.7,0
5.754,32552.05,0,0.0,0,2022,8.7,0
5.764,32748.92,0,0.0,0,2023,8.7,0
5.776,32861.95,0,0.0,0,2023,8.7,0
5.785,32931.21,0,0.0,0,2023,8.7,0
5.797,33082.03,0,0.0,0,2021,8.7,0
5.809,33195.76,0,0.0,0,2029,8.7,1
5.82,33366.79,0,0.0,0,2022,8.7,2
5.829,33477.18,0,0.0,0,2026,8.7,0
5.838,33639.43,0,0.0,0,2019,8.7,0
5.847,33738.92,0,0.0,0,2026,8.7,1
5.855,33845.8,0,0.0,0,2023,8.7,0
5.866,33952.14,0,0.0,0,2017,8.7,0
5.873,34087.5,0,0.0,0,2024,8.7,1
5.88,34172.22,0,0.0,0,2020,8.7,0
5.891,34251.5,0,0.0,0,2022,8.7,2
5.898,34337.63,0,0.0,0,2020,8.7,0
5.909,34473.86,0,0.0,0,2021,8.7,0
5.915,34615.01,0,0.0,0,2025,8.7,1
5.925,34698.16,0,0.0,0,2022,8.7,0
5.931,34797.83,0,0.0,0,2024,8.7,2
5.94,34888.71,0,0.0,0,2027,8.7,0
5.951,34974.84,0,0.0,0,2023,8.7,3
5.96,35098.76,0,0.0,0,2023,8.7,0
5.967,35213.02,0,0.0,0,2021,8.7,1
5.985,35311.46,0,0.0,0,2025,8.7,2
5.996,35486.01,0,0.0,0,2024,8.7,2
6.005,35614.16,0,0.0,0,2018,8.7,0
6.015,35790.11,0,0.0,0,2023,8.7,0
6.02,35869.92,0,0.0,0,2018,8.7,2
6.027,35979.25,0,0.0,0,2030,8.7,0
6.033,36040.6,0,0.0,0,2022,8.7,2
6.037,36140.44,0,0.0,0,2023,8.7,0
6.043,36191.07,0,0.0,0,2024,8.7,1
6.053,36239.06,0,0.0,0,2026,8.7,3
6.063,36350.15,0,0.0,0,2022,8.7,0
6.071,36448.06,0,0.0,0,2025,8.7,0
6.081,36562.14,0,0.0,0,2023,8.7,1
6.096,36712.26,0,0.0,0,2023,8.7,0
6.104,36807.89,0,0.0,0,2023,8.7,0
6.111,36980.85,0,0.0,0,2026,8.7,0
6.122,37068.57,0,0.0,0,2023,8.7,0
6.128,37176.85,0,0.0,0,2022,8.7,0
6.136,37287.59,0,0.0,0,2026,8.7,2
6.147,37371.62,0,0.0,0,2027,8.7,0
6.154,37451.07,0,0.0,0,2028,8.7,1
6.16,37587.48,0,0.0,0,2018,8.7,0
6.169,37664.82,0,0.0,0,2021,8.7,2
6.18,37735.48,0,0.0,0,2029,8.7,0
6.186,37926.73,0,0.0,0,2025,8.7,0
6.193,37981.58,0,0.0,0,2023,8.7,0
6.197,38048.02,0,0.0,0,2026,8.7,1
6.206,38135.74,0,0.0,0,2027,8.7,0
6.218,38191.64,0,0.0,0,2026,8.7,2
6.226,38325.41,0,0.0,0,2017,8.7,0
6.235,38444.94,0,0.0,0,2029,8.7,0
6.243,38557.61,0,0.0,0,2021,8.7,3
6.25,38641.81,0,0.0,0,2022,8.7,0
6.274,38742.36,0,0.0,0,2020,8.7,2
6.285,38923.24,0,0.0,0,2027,8.7,2
6.294,39122.75,0,0.0,0,2028,8.7,2
6.305,39257.22,0,0.0,0,2030,8.7,2
6.315,39369.9,0,0.0,0,2026,8.7,0
6.327,39511.58,0,0.0,0,2023,8.7,0
6.342,39671.89,0,0.0,0,2023,8.7,2
6.359,39790.89,0,0.0,0,2025,8.7,1
6.366,39980.74,0,0.0,0,2020,8.7,2
6.377,40154.23,0,0.0,0,2023,8.7,1
6.387,40247.92,0,0.0,0,2018,8.7,0
6.398,40407.53,0,0.0,0,2023,8.7,0
6.416,40547.1,0,0.0,0,2022,8.7,2
6.428,40627.61,0,0.0,0,2023,8.7,0
6.437,40858.24,0,0.0,0,2025,8.7,0
6.449,40994.47,0,0.0,0,2026,8.7,0
6.461,41107.85,0,0.0,0,2024,8.7,1
6.472,41285.39,0,0.0,0,2023,8.7,2
6.48,41420.91,0,0.0,0,2020,8.7,1
6.488,41523.57,0,0.0,0,2021,8.7,0
6.496,41635.01,0,0.0,0,2021,8.7,2
6.504,41758.94,0,0.0,0,2023,8.7,0
6.508,41834.35,0,0.0,0,2025,8.7,1
6.516,41914.16,0,0.0,0,2023,8.7,0
6.521,41961.44,0,0.0,0,2021,8.7,2
6.531,42055.13,0,0.0,0,2021,8.7,0
6.538,42119.82,0,0.0,0,2027,8.7,0
6.548,42253.06,0,0.0,0,2020,8.7,0
6.554,42343.94,0,0.0,0,2029,8.7,2
6.562,42453.1,0,0.0,0,2030,8.7,0
6.579,42534.66,0,0.0,0,2022,8.7,0
6.594,42625.54,0,0.0,0,2018,8.7,0
6.61,42828.04,0,0.0,0,2025,8.7,0
6.625,43076.77,0,0.0,0,2024,8.7,2
6.634,43226.36,0,0.0,0,2025,8.7,2
6.652,43375.6,0,0.0,0,2021,8.7,0
6.663,43615.19,0,0.0,0,2026,8.7,2
6.683,43725.41,0,0.0,0,2024,8.7,0
6.688,43844.58,0,0.0,0,2024,8.7,0
6.696,44088.04,0,0.0,0,2018,8.7,0
6.7,44155.01,0,0.0,0,2025,8.7,2
6.714,44246.77,0,0.0,0,2027,8.7,0
6.722,44304.08,0,0.0,0,2023,8.7,2
6.731,44472.48,0,0.0,0,2023,8.7,1
6.738,44582.69,0,0.0,0,2026,8.7,0
6.754,44685.0,0,0.0,0,2019,8.7,2
6.771,44854.1,0,0.0,0,2019,8.7,2
6.781,45084.37,0,0.0,0,2023,8.7,1
6.791,45149.76,0,0.0,0,2023,8.7,0
6.799,45310.25,0,0.0,0,2023,8.7,0
6.808,45403.41,0,0.0,0,2026,8.7,2
6.835,45520.13,0,0.0,0,2024,8.7,0
6.845,45719.29,0,0.0,0,2023,8.7,0
6.861,45954.31,0,0.0,0,2025,8.7,2
6.878,46161.21,0,0.0,0,2022,8.7,0
6.889,46255.95,0,0.0,0,2022,8.7,0
6.896,46465.83,0,0.0,0,2026,8.7,2
6.904,46587.3,0,0.0,0,2016,8.7,0
6.913,46672.03,0,0.0,0,2021,8.7,2
6.924,46784.7,0,0.0,0,2021,8.7,0
6.934,46900.19,0,0.0,0,2021,8.7,0
6.946,47018.14,0,0.0,0,2022,8.7,2
6.95,47138.2,0,0.0,0,2029,8.7,0
6.958,47268.28,0,0.0,0,2023,8.7,0
6.963,47331.21,0,0.0,0,2023,8.7,0
6.968,47419.98,0,0.0,0,2019,8.7,1
6.977,47482.03,0,0.0,0,2020,8.7,0
6.988,47567.1,0,0.0,0,2019,8.7,2
6.997,47665.72,0,0.0,0,2023,8.7,0
7.007,47794.74,0,0.0,0,2023,8.7,0
7.02,47912.69,0,0.0,0,2026,8.7,2
7.03,48072.48,0,0.0,0,2023,8.7,1
7.039,48192.53,0,0.0,0,2023,8.7,0
7.049,48293.26,0,0.0,0,2023,8.7,2
7.058,48413.32,0,0.0,0,2022,8.7,0
7.065,48532.67,0,0.0,0,2022,8.7,0
7.069,48644.64,0,0.0,0,2020,8.7,2
7.076,48723.57,0,0.0,0,2020,8.7,0
7.084,48771.03,0,0.0,0,2024,8.7,0
7.101,48854.53,0,0.0,0,2023,8.7,1
7.106,48946.81,0,0.0,0,2023,8.7,0
7.119,49161.79,0,0.0,0,2021,8.7,2
7.129,49233.16,0,0.0,0,2027,8.7,0
7.135,49382.57,0,0.0,0,2026,8.7,2
7.145,49506.5,0,0.0,0,2022,8.7,0
7.152,49582.96,0,0.0,0,2027,8.7,0
7.16,49704.43,0,0.0,0,2023,8.7,1
7.171,49787.22,0,0.0,0,2024,8.7,0
7.178,49890.58,0,0.0,0,2023,8.7,2
7.187,50009.94,0,0.0,0,2023,8.7,0
7.194,50096.95,0,0.0,0,2021,8.7,2
7.2,50208.39,0,0.0,0,2028,8.7,0
7.211,50294.35,0,0.0,0,2023,8.7,1
7.217,50396.83,0,0.0,0,2025,8.7,0
7.22,50506.34,0,0.0,0,2021,8.7,0
7.225,50560.83,0,0.0,0,2023,8.7,0
7.235,50606.71,0,0.0,0,2023,8.7,2
7.243,50686.87,0,0.0,0,2023,8.7,0
7.25,50792.16,0,0.0,0,2019,8.7,2
7.258,50893.06,0,0.0,0,2021,8.7,0
7.265,50986.23,0,0.0,0,2029,8.7,2
7.273,51063.75,0,0.0,0,2023,8.7,0
7.289,51165.7,0,0.0,0,2026,8.7,2
7.295,51315.11,0,0.0,0,2024,8.7,1
7.298,51445.01,0,0.0,0,2024,8.7,0
7.306,51509.17,0,0.0,0,2024,8.7,2
7.315,51590.39,0,0.0,0,2021,8.7,0
7.331,51651.03,0,0.0,0,2023,8.7,0
7.34,51768.45,0,0.0,0,2024,8.7,0
7.348,51959.7,0,0.0,0,2020,8.7,0
7.353,52089.08,0,0.0,0,2019,8.7,2
7.361,52147.44,0,0.0,0,2023,8.7,0
7.365,52234.62,0,0.0,0,2025,8.7,2
7.373,52305.64,0,0.0,0,2022,8.7,1
7.384,52364.7,0,0.0,0,2023,8.7,0
7.393,52468.94,0,0.0,0,2023,8.7,0
7.401,52605.0,0,0.0,0,2019,8.7,2
7.409,52708.0,0,0.0,0,2022,8.7,0
7.417,52846.69,0,0.0,0,2024,8.7,0
7.421,52923.16,0,0.0,0,2024,8.7,0
7.425,52992.77,0,0.0,0,2016,8.7,1
7.431,53041.11,0,0.0,0,2019,8.7,0
7.442,53091.73,0,0.0,0,2017,8.7,0
7.451,53172.94,0,0.0,0,2023,8.7,2
7.46,53304.08,0,0.0,0,2023,8.7,2
7.467,53416.58,0,0.0,0,2024,8.7,0
7.474,53540.5,0,0.0,0,2026,8.7,1
7.481,53600.44,0,0.0,0,2026,8.7,0
7.487,53685.35,0,0.0,0,2026,8.7,2
7.492,53759.35,0,0.0,0,2021,8.7,0
7.495,53843.9,0,0.0,0,2023,8.7,2
7.503,53895.41,0,0.0,0,2024,8.7,1
7.51,53939.17,0,0.0,0,2023,8.7,0
7.521,54031.28,0,0.0,0,2026,8.7,2
7.529,54134.64,0,0.0,0,2023,8.7,0
7.539,54250.31,0,0.0,0,2026,8.7,1
7.544,54354.37,0,0.0,0,2023,8.7,0
7.548,54474.08,0,0.0,0,2023,8.7,0
7.552,54535.25,0,0.0,0,2021,8.7,0
7.557,54583.94,0,0.0,0,2028,8.7,2
7.562,54635.8,0,0.0,0,2023,8.7,0
7.568,54683.26,0,0.0,0,2026,8.7,0
7.573,54749.35,0,0.0,0,2023,8.7,2
7.579,54831.26,0,0.0,0,2023,8.7,0
7.585,54890.15,0,0.0,0,2017,8.7,0
7.59,54960.82,0,0.0,0,2029,8.7,2
7.599,55030.6,0,0.0,0,2023,8.7,0
7.605,55110.76,0,0.0,0,2027,8.7,2
7.612,55198.12,0,0.0,0,2023,8.7,0
7.618,55281.79,0,0.0,0,2021,8.7,1
7.622,55368.45,0,0.0,0,2024,8.7,0
7.628,55434.19,0,0.0,0,2022,8.7,0
7.65,55477.44,0,0.0,0,2021,8.7,2
7.66,55563.22,0,0.0,0,2019,8.7,0
7.667,55843.59,0,0.0,0,2024,8.7,2
7.674,55939.04,0,0.0,0,2023,8.7,0
7.692,56025.17,0,0.0,0,2020,8.7,2
7.696,56103.22,0,0.0,0,2026,8.7,0
7.703,56331.38,0,0.0,0,2023,8.7,0
7.713,56372.51,0,0.0,0,2023,8.7,2
7.721,56494.86,0,0.0,0,2032,8.7,0
7.728,56598.57,0,0.0,0,2025,8.7,1
7.738,56683.47,0,0.0,0,2021,8.7,0
7.749,56770.31,0,0.0,0,2026,8.7,2
7.756,56902.14,0,0.0,0,2023,8.7,2
7.762,57030.82,0,0.0,0,2023,8.7,0
7.769,57119.41,0,0.0,0,2020,8.7,2
7.773,57200.8,0,0.0,0,2024,8.7,0
7.777,57274.62,0,0.0,0,2025,8.7,2
7.782,57316.99,0,0.0,0,2015,8.7,1
7.789,57368.49,0,0.0,0,2019,8.7,0
7.794,57450.41,0,0.0,0,2024,8.7,2
7.805,57519.14,0,0.0,0,2022,8.7,0
7.814,57589.62,0,0.0,0,2022,8.7,0
7.82,57707.4,0,0.0,0,2025,8.7,0
7.834,57815.15,0,0.0,0,2023,8.7,2
7.852,57884.76,0,0.0,0,2023,8.7,0
7.877,58196.6,0,0.0,0,2024,8.7,2
7.892,58373.08,0,0.0,0,2023,8.7,2
7.901,58586.13,0,0.0,0,2022,8.7,0
7.907,58780.54,0,0.0,0,2021,8.7,0
7.913,58864.39,0,0.0,0,2023,8.7,0
7.923,58947.71,0,0.0,0,2023,8.7,0
7.931,59023.12,0,0.0,0,2019,8.7,0
7.944,59132.98,0,0.0,0,2023,8.7,0
7.954,59237.05,0,0.0,0,2023,8.7,2
7.967,59426.89,0,0.0,0,2024,8.7,2
7.982,59548.35,0,0.0,0,2022,8.7,0
7.991,59671.4,0,0.0,0,2024,8.7,0
8.003,59866.52,0,0.0,0,2025,8.7,0
8.012,59982.53,0,0.0,0,2022,8.7,2
8.026,60115.95,0,0.0,0,2022,8.7,0
8.033,60231.97,0,0.0,0,2019,8.7,0
8.041,60381.56,0,0.0,0,2023,8.7,0
8.05,60475.6,0,0.0,0,2025,8.7,0
8.056,60570.0,0,0.0,0,2023,8.7,0
8.069,60674.58,0,0.0,0,2023,8.7,1
8.076,60751.05,0,0.0,0,2026,8.7,0
8.089,60918.22,0,0.0,0,2024,8.7,1
